#Wave		#Intensity
101.439453	23223.492188
102.561523	23584.375000
103.683594	23285.865234
104.805664	23305.919922
105.927734	23591.224609
107.048828	23368.341797
108.169922	23310.375000
109.291016	23305.912109
110.411133	23203.296875
111.532227	23247.894531
112.652344	23390.691406
113.772461	23314.814453
114.892578	23375.080078
116.011719	23502.351562
117.131836	23165.162109
118.250977	23305.841797
119.370117	23397.423828
120.488281	23381.785156
121.607422	23614.214844
122.725586	23536.017578
123.843750	23533.806641
124.961914	23493.578125
126.079102	23596.476562
127.197266	23486.894531
128.314453	23562.978516
129.431641	23728.609375
130.548828	23681.658203
131.665039	23746.626953
132.781250	23645.917969
133.897461	24100.595703
135.013672	23874.470703
136.129883	24094.115234
137.245117	23724.482422
138.360352	24006.935547
139.475586	23841.142578
140.590820	23903.988281
141.706055	23926.490234
142.820312	23843.576172
143.934570	23928.888672
145.048828	23884.087891
146.162109	23686.654297
147.276367	23823.611328
148.389648	23603.636719
149.502930	23646.312500
150.616211	23338.623047
151.728516	23282.417969
152.841797	23394.707031
153.954102	23381.187500
155.066406	23327.203125
156.178711	23259.707031
157.290039	23068.511719
158.401367	23151.623047
159.512695	22782.623047
160.624023	22777.964844
161.735352	22937.576172
162.845703	22975.708984
163.956055	22754.966797
165.066406	22725.527344
166.176758	22880.742188
167.287109	22567.500000
168.396484	22803.847656
169.505859	22675.242188
170.615234	22711.113281
171.724609	22744.742188
172.833008	22638.595703
173.941406	22692.515625
175.049805	22714.878906
176.158203	22590.615234
177.266602	22685.167969
178.374023	22680.457031
179.481445	22413.910156
180.588867	22763.591797
181.696289	22494.697266
182.802734	22783.544922
183.910156	22618.460938
185.016602	22451.052734
186.123047	22525.376953
187.228516	22271.998047
188.334961	22285.275391
189.440430	22624.148438
190.545898	22212.337891
191.651367	22705.134766
192.755859	22659.677734
193.861328	22331.357422
194.965820	22387.656250
196.070312	22260.619141
197.173828	22450.503906
198.278320	22407.214844
199.381836	22268.783203
200.485352	22239.033203
201.588867	22528.748047
202.692383	22353.996094
203.794922	22446.640625
204.897461	22342.083984
206.000000	22446.097656
207.102539	22497.988281
208.205078	22277.691406
209.306641	22608.628906
210.408203	22476.767578
211.509766	22292.652344
212.611328	22471.681641
213.711914	22339.714844
214.812500	22568.779297
215.914062	22638.933594
217.013672	22886.314453
218.114258	22640.708984
219.213867	22635.914062
220.314453	22872.066406
221.414062	22824.113281
222.512695	23153.623047
223.612305	22987.433594
224.710938	23098.710938
225.809570	22936.996094
226.908203	22834.388672
228.006836	23084.541016
229.105469	23346.169922
230.203125	23056.863281
231.300781	23320.861328
232.398438	23598.625000
233.496094	23363.876953
234.592773	23320.451172
235.689453	23044.535156
236.786133	23422.753906
237.882812	23404.392578
238.979492	23424.789062
240.075195	23474.845703
241.170898	23499.824219
242.266602	23474.613281
243.362305	23647.941406
244.457031	23567.962891
245.552734	23661.464844
246.647461	23430.748047
247.742188	23880.546875
248.835938	23693.183594
249.930664	23590.285156
251.024414	23772.996094
252.118164	24056.343750
253.211914	24143.195312
254.304688	23720.189453
255.398438	24040.275391
256.491211	24200.365234
257.583984	24200.369141
258.676758	24360.546875
259.768555	24230.125000
260.861328	24172.902344
261.953125	24498.009766
263.044922	24731.640625
264.135742	24795.867188
265.227539	24507.330078
266.318359	24495.925781
267.409180	24814.519531
268.500000	25034.671875
269.590820	24720.738281
270.680664	24771.271484
271.770508	24920.439453
272.861328	25145.361328
273.950195	24709.607422
275.040039	25074.550781
276.128906	24959.941406
277.217773	24932.517578
278.306641	24730.585938
279.395508	24659.474609
280.484375	24645.757812
281.572266	24802.037109
282.660156	24678.046875
283.748047	24636.742188
284.835938	24517.269531
285.922852	24418.439453
287.010742	24326.470703
288.097656	24094.169922
289.184570	24321.855469
290.270508	24002.033203
291.357422	23939.826172
292.443359	23762.513672
293.529297	23569.015625
294.615234	23573.462891
295.700195	23372.947266
296.786133	23294.433594
297.871094	23503.871094
298.956055	23151.140625
300.041016	23079.453125
301.125000	23136.824219
302.209961	22945.212891
303.293945	22944.927734
304.377930	23089.949219
305.460938	22817.476562
306.544922	22717.949219
307.627930	22779.925781
308.710938	22604.181641
309.793945	22423.751953
310.876953	22668.121094
311.958984	22346.753906
313.041016	22445.671875
314.124023	22489.177734
315.205078	22340.902344
316.287109	22141.722656
317.368164	22358.568359
318.450195	22295.728516
319.531250	22209.740234
320.611328	22008.066406
321.692383	22132.509766
322.772461	22115.853516
323.853516	21997.361328
324.933594	22293.158203
326.012695	21878.310547
327.092773	22067.677734
328.171875	21946.767578
329.250977	22235.824219
330.330078	22089.410156
331.409180	21789.996094
332.487305	21666.619141
333.566406	21856.152344
334.644531	22073.582031
335.722656	21797.125000
336.799805	21386.031250
337.877930	21587.250000
338.955078	21612.195312
340.032227	21537.351562
341.109375	21443.908203
342.186523	21554.740234
343.262695	21419.464844
344.338867	21263.234375
345.415039	21334.599609
346.491211	21359.521484
347.567383	21212.484375
348.642578	21188.580078
349.717773	21301.826172
350.792969	21094.236328
351.868164	21367.974609
352.943359	21290.578125
354.017578	21248.048828
355.091797	21338.136719
356.166016	20958.126953
357.240234	21038.882812
358.313477	20900.810547
359.387695	21130.621094
360.460938	21006.486328
361.534180	21166.513672
362.606445	21121.556641
363.679688	20995.017578
364.751953	21227.386719
365.824219	21203.396484
366.896484	21158.410156
367.968750	21209.025391
369.040039	21206.007812
370.112305	21277.648438
371.183594	21440.320312
372.253906	21264.628906
373.325195	21361.994141
374.396484	21674.199219
375.466797	21587.191406
376.537109	21345.992188
377.607422	21585.945312
378.676758	21767.574219
379.747070	21619.751953
380.816406	21766.390625
381.885742	21894.380859
382.955078	21797.937500
384.023438	22042.917969
385.092773	22054.068359
386.161133	22053.523438
387.229492	22048.296875
388.297852	21794.972656
389.365234	22026.130859
390.433594	22322.933594
391.500977	22064.830078
392.568359	22237.609375
393.634766	22117.611328
394.702148	22091.292969
395.768555	22057.935547
396.834961	22303.501953
397.901367	22235.001953
398.967773	22283.718750
400.034180	22409.849609
401.099609	22310.832031
402.165039	22380.705078
403.230469	22490.494141
404.295898	22478.275391
405.360352	22327.544922
406.424805	22672.183594
407.489258	22502.642578
408.553711	22671.275391
409.618164	22628.533203
410.682617	22670.363281
411.746094	22606.449219
412.809570	23066.701172
413.873047	22946.410156
414.935547	23094.144531
415.999023	23223.117188
417.061523	22860.488281
418.124023	23118.869141
419.186523	22956.111328
420.249023	23089.857422
421.310547	23037.675781
422.372070	22731.177734
423.433594	22966.220703
424.495117	22968.158203
425.556641	22743.927734
426.617188	22734.041016
427.677734	22797.210938
428.739258	22619.964844
429.798828	22822.236328
430.859375	22583.615234
431.918945	22540.664062
432.979492	22301.898438
434.039062	22648.181641
435.097656	22506.101562
436.157227	22774.660156
437.215820	22778.914062
438.275391	22901.226562
439.333984	22704.765625
440.391602	22756.246094
441.450195	22318.703125
442.507812	22625.330078
443.566406	22712.271484
444.624023	22770.880859
445.680664	22550.523438
446.738281	22883.429688
447.794922	22979.941406
448.851562	23178.208984
449.908203	22785.039062
450.964844	23120.597656
452.021484	23269.294922
453.077148	23254.697266
454.132812	23242.458984
455.188477	23526.250000
456.244141	23568.537109
457.299805	23653.482422
458.354492	23878.263672
459.409180	23915.896484
460.463867	23944.060547
461.518555	23991.201172
462.572266	24102.384766
463.626953	24208.865234
464.680664	24222.867188
465.734375	24160.945312
466.788086	24227.150391
467.840820	24499.876953
468.893555	24217.187500
469.947266	24392.660156
471.000000	24328.333984
472.051758	24598.902344
473.104492	24527.460938
474.156250	24593.810547
475.208008	24897.849609
476.259766	25228.148438
477.311523	25014.113281
478.363281	25292.240234
479.414062	25532.414062
480.464844	25682.277344
481.515625	26098.679688
482.566406	25917.917969
483.616211	26593.958984
484.666992	26410.837891
485.716797	26872.919922
486.766602	27135.126953
487.815430	27490.326172
488.865234	28098.191406
489.914062	27731.693359
490.962891	27698.720703
492.011719	27622.826172
493.060547	27449.150391
494.109375	27394.638672
495.157227	27113.525391
496.205078	26622.380859
497.252930	26467.470703
498.300781	26195.570312
499.347656	25816.158203
500.395508	25505.833984
501.442383	25095.109375
502.489258	24887.226562
503.536133	24719.871094
504.582031	24817.638672
505.627930	24291.779297
506.674805	24243.714844
507.720703	24064.158203
508.765625	23855.843750
509.811523	23331.800781
510.856445	23577.701172
511.901367	23534.236328
512.946289	23215.605469
513.991211	23358.714844
515.036133	23090.191406
516.080078	22943.660156
517.124023	22770.736328
518.167969	22657.615234
519.211914	22546.849609
520.254883	22529.472656
521.298828	22507.296875
522.341797	22559.406250
523.384766	22429.357422
524.427734	22349.607422
525.469727	22231.458984
526.512695	22297.943359
527.554688	22450.808594
528.596680	22018.302734
529.638672	22041.585938
530.679688	22158.482422
531.721680	21992.148438
532.762695	21868.970703
533.803711	21985.898438
534.844727	21977.964844
535.884766	21816.275391
536.925781	21808.304688
537.965820	21696.990234
539.005859	22001.480469
540.045898	21753.119141
541.084961	21810.052734
542.125000	21530.296875
543.164062	21584.802734
544.203125	21651.357422
545.242188	21734.781250
546.280273	21849.525391
547.319336	21829.500000
548.357422	21734.826172
549.395508	21726.810547
550.433594	21475.519531
551.470703	21821.587891
552.508789	21572.626953
553.545898	21458.533203
554.583008	21491.431641
555.620117	21664.173828
556.657227	21236.556641
557.693359	21361.076172
558.729492	21275.779297
559.766602	21506.507812
560.801758	21380.181641
561.837891	21376.896484
562.874023	21260.152344
563.909180	21353.421875
564.944336	21226.968750
565.979492	21262.294922
567.013672	21597.193359
568.048828	21127.605469
569.083008	21457.765625
570.117188	21222.439453
571.151367	21361.748047
572.185547	21140.822266
573.219727	21318.861328
574.252930	21151.060547
575.286133	21278.359375
576.319336	21095.966797
577.352539	21027.259766
578.384766	21086.822266
579.417969	21269.886719
580.450195	21288.347656
581.482422	21018.589844
582.513672	21225.962891
583.545898	20997.283203
584.577148	21081.134766
585.608398	21041.400391
586.639648	21236.806641
587.670898	21102.519531
588.702148	20985.158203
589.732422	20940.521484
590.762695	20803.675781
591.792969	21084.142578
592.823242	21211.810547
593.853516	21162.324219
594.882812	20947.722656
595.912109	20854.457031
596.942383	20926.312500
597.970703	20918.029297
599.000000	20953.476562
600.028320	21037.537109
601.057617	21143.503906
602.085938	20950.492188
603.114258	21126.992188
604.141602	20921.746094
605.169922	21047.224609
606.197266	21038.943359
607.224609	21208.285156
608.251953	20895.814453
609.279297	20860.722656
610.305664	20898.654297
611.333008	20873.287109
612.359375	20877.136719
613.385742	21070.990234
614.411133	20799.560547
615.437500	20737.599609
616.462891	20714.613281
617.488281	20686.740234
618.513672	20639.351562
619.539062	20740.701172
620.564453	20827.451172
621.588867	20641.005859
622.613281	20844.888672
623.637695	20738.908203
624.662109	20735.406250
625.686523	20680.634766
626.709961	20506.191406
627.733398	20622.312500
628.756836	20596.798828
629.780273	20654.339844
630.803711	20804.759766
631.826172	20437.095703
632.848633	20827.087891
633.871094	20559.533203
634.893555	20893.447266
635.916016	20863.050781
636.937500	21248.513672
637.959961	21015.089844
638.981445	20747.318359
640.002930	20795.193359
641.023438	20725.578125
642.044922	20868.957031
643.065430	20654.835938
644.085938	20857.041016
645.106445	20299.851562
646.126953	20602.527344
647.147461	20390.646484
648.166992	20470.384766
649.186523	20157.880859
650.206055	20276.837891
651.225586	20435.080078
652.245117	20095.410156
653.263672	20229.140625
654.282227	20046.357422
655.300781	20054.951172
656.319336	20191.201172
657.337891	19966.566406
658.355469	19584.681641
659.373047	19858.464844
660.390625	19677.863281
661.408203	19588.109375
662.425781	19537.640625
663.443359	19612.511719
664.459961	19338.308594
665.476562	19767.253906
666.493164	19367.546875
667.509766	19585.107422
668.525391	19859.333984
669.541016	19604.605469
670.557617	19586.054688
671.573242	19385.333984
672.587891	19576.011719
673.603516	19631.318359
674.618164	19558.568359
675.632812	19234.521484
676.648438	19427.771484
677.662109	19391.906250
678.676758	19634.550781
679.690430	19581.451172
680.705078	19577.646484
681.718750	19408.607422
682.732422	19281.439453
683.745117	19077.742188
684.758789	19256.435547
685.771484	19210.607422
686.784180	19194.382812
687.796875	19086.804688
688.809570	19403.906250
689.821289	19192.593750
690.833984	19060.250000
691.845703	19229.279297
692.857422	19027.701172
693.869141	18964.455078
694.879883	18923.435547
695.890625	19144.482422
696.902344	19091.113281
697.913086	19064.929688
698.923828	19117.900391
699.933594	19029.853516
700.944336	19169.451172
701.954102	18908.115234
702.963867	18775.417969
703.973633	18786.285156
704.982422	19017.568359
705.992188	18917.017578
707.000977	19207.867188
708.009766	18834.740234
709.018555	18820.839844
710.027344	18854.031250
711.036133	18882.275391
712.043945	19032.037109
713.051758	18804.861328
714.059570	19016.677734
715.067383	19072.261719
716.075195	19130.345703
717.082031	19027.119141
718.088867	18829.521484
719.095703	19143.330078
720.102539	19002.796875
721.109375	18884.564453
722.115234	18900.441406
723.122070	19115.099609
724.127930	18755.757812
725.133789	18918.269531
726.138672	19036.089844
727.144531	18897.835938
728.149414	18851.550781
729.154297	19014.195312
730.159180	18671.849609
731.164062	18931.564453
732.168945	19074.400391
733.172852	19301.921875
734.176758	18989.251953
735.180664	18925.486328
736.184570	18794.449219
737.188477	18989.699219
738.191406	18636.875000
739.195312	18966.732422
740.198242	18868.005859
741.201172	18647.089844
742.203125	18859.939453
743.206055	18309.751953
744.208008	18624.880859
745.209961	18992.515625
746.211914	18267.382812
747.213867	18699.972656
748.215820	18638.486328
749.216797	18761.724609
750.217773	18787.623047
751.218750	18234.113281
752.219727	18557.175781
753.220703	18563.062500
754.220703	18439.007812
755.221680	18339.900391
756.221680	18325.748047
757.221680	18474.103516
758.220703	18209.902344
759.220703	18255.742188
760.219727	17998.908203
761.218750	18124.791016
762.217773	18183.150391
763.216797	18118.886719
764.215820	18099.660156
765.213867	18158.044922
766.211914	17981.042969
767.209961	18152.142578
768.208008	18400.964844
769.206055	18238.941406
770.203125	18041.775391
771.201172	18115.248047
772.198242	18271.480469
773.195312	18129.373047
774.192383	18102.580078
775.188477	18404.382812
776.185547	18252.183594
777.181641	18072.326172
778.177734	18296.480469
779.173828	18131.625000
780.168945	18029.478516
781.165039	18135.718750
782.160156	18136.509766
783.155273	17871.019531
784.150391	18095.376953
785.144531	18013.228516
786.139648	18061.750000
787.133789	18293.804688
788.127930	18277.019531
789.122070	18202.386719
790.116211	18047.236328
791.110352	18324.736328
792.103516	18058.835938
793.096680	18044.505859
794.089844	18317.121094
795.083008	18519.341797
796.076172	18427.025391
797.068359	18228.896484
798.061523	18179.314453
799.053711	18144.830078
800.045898	18304.361328
801.038086	18098.501953
802.029297	18371.517578
803.020508	18142.904297
804.012695	18360.546875
805.003906	18240.298828
805.994141	18135.140625
806.985352	18214.130859
807.976562	18111.451172
808.966797	18346.951172
809.957031	18140.755859
810.947266	18181.925781
811.936523	18238.261719
812.926758	18317.349609
813.916016	17972.048828
814.905273	17967.734375
815.894531	18299.535156
816.883789	17820.074219
817.873047	17944.660156
818.861328	17859.417969
819.850586	17905.656250
820.838867	17888.669922
821.826172	18061.425781
822.814453	18122.904297
823.802734	18176.812500
824.790039	18061.138672
825.777344	18191.007812
826.764648	18120.873047
827.751953	17794.908203
828.738281	18254.109375
829.725586	18016.726562
830.711914	18189.779297
831.698242	17934.554688
832.684570	17965.693359
833.670898	18024.732422
834.656250	17878.382812
835.641602	17640.666016
836.627930	17697.140625
837.612305	17784.082031
838.597656	17523.376953
839.583008	17460.560547
840.567383	17702.363281
841.551758	17560.839844
842.536133	17845.921875
843.520508	17551.966797
844.504883	17613.582031
845.488281	17456.689453
846.472656	17808.035156
847.456055	17559.611328
848.439453	17506.861328
849.421875	17329.490234
850.405273	17691.236328
851.387695	17178.056641
852.371094	17555.169922
853.353516	17316.603516
854.334961	17357.917969
855.317383	17473.068359
856.299805	17282.732422
857.281250	17481.943359
858.262695	17283.896484
859.244141	17274.289062
860.225586	17040.460938
861.206055	17038.449219
862.187500	17258.183594
863.167969	17133.841797
864.148438	17233.833984
865.128906	17137.494141
866.108398	17089.582031
867.088867	16870.724609
868.068359	17151.902344
869.047852	17004.433594
870.027344	16841.595703
871.006836	16936.550781
871.985352	16758.318359
872.964844	16638.761719
873.943359	16626.445312
874.921875	16634.560547
875.900391	16520.025391
876.877930	16684.025391
877.856445	16779.066406
878.833984	16774.429688
879.811523	16976.919922
880.789062	16795.839844
881.766602	16678.646484
882.744141	16630.490234
883.720703	16653.968750
884.697266	16818.224609
885.673828	16557.591797
886.650391	16537.539062
887.626953	16550.769531
888.602539	16784.279297
889.579102	16620.794922
890.554688	16757.033203
891.530273	16752.373047
892.504883	16534.966797
893.480469	16789.187500
894.455078	16571.707031
895.430664	16902.962891
896.405273	16908.580078
897.379883	16857.757812
898.353516	16804.349609
899.328125	16761.187500
900.301758	16848.919922
901.275391	16898.173828
902.249023	17214.494141
903.222656	16929.955078
904.196289	16807.142578
905.168945	16838.437500
906.141602	16905.716797
907.114258	16983.298828
908.086914	16942.664062
909.059570	17007.423828
910.031250	16861.345703
911.003906	16941.544922
911.975586	16990.904297
912.947266	16759.833984
913.918945	16834.910156
914.889648	16825.078125
915.861328	17216.828125
916.832031	17039.699219
917.802734	17130.328125
918.773438	17025.238281
919.744141	16884.042969
920.713867	16724.759766
921.684570	16810.240234
922.654297	16800.380859
923.624023	16540.451172
924.593750	16986.927734
925.562500	16623.781250
926.532227	16673.205078
927.500977	16892.916016
928.469727	16728.238281
929.438477	16754.478516
930.407227	16612.945312
931.375977	16750.185547
932.343750	16706.722656
933.311523	16583.181641
934.279297	16994.298828
935.247070	16692.496094
936.214844	16687.750000
937.181641	16670.078125
938.149414	16916.064453
939.116211	16763.984375
940.083008	16800.617188
941.049805	16780.363281
942.015625	16897.203125
942.982422	16439.705078
943.948242	16825.650391
944.914062	16774.326172
945.879883	16844.648438
946.845703	16731.166016
947.810547	16542.542969
948.776367	16511.847656
949.741211	16644.345703
950.706055	16546.287109
951.670898	16673.654297
952.634766	16531.503906
953.599609	16687.427734
954.563477	16451.882812
955.527344	16568.947266
956.491211	16810.556641
957.455078	16792.824219
958.418945	16606.425781
959.381836	16804.050781
960.344727	16378.782227
961.308594	16737.398438
962.270508	16685.876953
963.233398	16540.839844
964.196289	16741.226562
965.158203	16292.177734
966.120117	16682.279297
967.082031	16784.035156
968.043945	16545.302734
969.005859	16657.468750
969.966797	16785.277344
970.928711	16647.847656
971.889648	16874.546875
972.850586	16534.144531
973.810547	16654.212891
974.771484	16477.617188
975.731445	16800.761719
976.692383	16574.658203
977.652344	16895.332031
978.612305	16609.257812
979.571289	16682.574219
980.531250	17011.253906
981.490234	16526.992188
982.449219	16795.812500
983.408203	17036.052734
984.367188	16788.800781
985.326172	16627.519531
986.284180	16567.902344
987.243164	16850.011719
988.201172	16769.537109
989.159180	16853.445312
990.117188	16728.568359
991.074219	16713.292969
992.032227	16922.566406
992.989258	16988.277344
993.946289	16753.626953
994.903320	16743.566406
995.860352	16932.089844
996.816406	16684.232422
997.773438	16729.044922
998.729492	16768.644531
999.685547	16633.060547
1000.641602	16468.660156
1001.596680	16764.578125
1002.552734	16741.419922
1003.507812	16715.634766
1004.462891	16501.400391
1005.417969	16192.854492
1006.373047	16656.544922
1007.328125	16753.796875
1008.282227	16864.179688
1009.236328	16500.462891
1010.190430	16644.896484
1011.144531	16514.232422
1012.098633	16663.960938
1013.052734	16638.109375
1014.005859	16570.294922
1014.958984	16531.302734
1015.912109	16358.532227
1016.865234	16256.528320
1017.818359	16713.347656
1018.770508	16401.429688
1019.723633	16782.320312
1020.675781	16677.691406
1021.627930	16565.146484
1022.580078	16575.986328
1023.531250	16720.787109
1024.483398	16802.587891
1025.434570	16674.216797
1026.385742	16417.027344
1027.336914	16180.773438
1028.288086	16520.169922
1029.239258	16449.500000
1030.189453	16418.251953
1031.139648	16268.626953
1032.089844	16084.747070
1033.040039	16313.911133
1033.990234	15945.750977
1034.940430	16011.773438
1035.889648	15917.224609
1036.838867	15846.339844
1037.788086	15975.585938
1038.737305	15902.050781
1039.686523	16144.636719
1040.634766	15823.411133
1041.583984	15813.059570
1042.532227	15705.171875
1043.480469	15900.437500
1044.428711	16029.849609
1045.375977	16167.218750
1046.324219	16064.589844
1047.271484	15946.094727
1048.218750	16036.022461
1049.166016	15996.656250
1050.113281	16231.808594
1051.060547	15978.604492
1052.006836	16208.555664
1052.953125	16163.907227
1053.900391	16143.016602
1054.845703	15776.002930
1055.791992	16021.934570
1056.738281	15897.925781
1057.683594	15972.136719
1058.628906	16149.489258
1059.575195	16001.635742
1060.519531	16134.090820
1061.464844	16036.443359
1062.410156	15909.655273
1063.354492	16280.333984
1064.298828	16150.895508
1065.243164	16087.592773
1066.187500	16101.051758
1067.131836	15990.047852
1068.075195	16061.764648
1069.019531	15887.132812
1069.962891	15834.321289
1070.906250	15908.696289
1071.849609	15818.760742
1072.791992	15848.089844
1073.735352	15938.414062
1074.677734	15811.304688
1075.620117	15983.880859
1076.562500	15702.861328
1077.504883	15811.795898
1078.447266	15857.074219
1079.388672	15838.663086
1080.330078	15820.245117
1081.271484	15799.165039
1082.212891	15671.843750
1083.154297	15637.446289
1084.095703	15773.067383
1085.036133	15858.249023
1085.976562	15890.306641
1086.916992	16044.649414
1087.857422	16191.071289
1088.797852	16287.021484
1089.738281	16223.430664
1090.677734	16508.283203
1091.617188	16327.644531
1092.556641	16519.480469
1093.496094	16596.939453
1094.435547	16650.468750
1095.374023	16821.164062
1096.313477	16722.966797
1097.251953	16805.841797
1098.190430	16800.837891
1099.128906	17011.642578
1100.066406	16972.031250
1101.004883	16873.769531
1101.942383	17060.705078
1102.879883	17066.404297
1103.817383	17221.439453
1104.754883	17389.863281
1105.692383	17054.166016
1106.628906	17532.119141
1107.566406	17449.839844
1108.502930	17482.300781
1109.439453	17637.570312
1110.375977	17985.134766
1111.311523	17934.919922
1112.248047	18173.150391
1113.183594	18275.220703
1114.119141	18540.314453
1115.054688	18351.195312
1115.990234	18816.857422
1116.924805	18911.091797
1117.860352	19080.226562
1118.794922	19238.722656
1119.729492	19282.259766
1120.664062	19633.460938
1121.598633	19653.001953
1122.533203	20071.296875
1123.466797	19962.441406
1124.400391	20142.673828
1125.333984	20352.423828
1126.267578	20867.548828
1127.201172	20855.179688
1128.133789	20698.138672
1129.067383	20926.888672
1130.000000	21270.958984
1130.932617	21411.435547
1131.865234	21554.640625
1132.797852	21295.687500
1133.729492	21972.615234
1134.662109	21869.218750
1135.593750	22141.378906
1136.525391	22078.222656
1137.457031	22557.167969
1138.388672	22711.484375
1139.319336	22694.033203
1140.250977	23240.468750
1141.181641	23225.789062
1142.112305	24172.748047
1143.042969	24139.419922
1143.972656	23864.238281
1144.903320	24602.177734
1145.833008	24372.675781
1146.762695	23815.089844
1147.692383	23526.207031
1148.622070	23151.156250
1149.551758	22617.263672
1150.480469	22244.607422
1151.410156	21713.054688
1152.338867	21280.894531
1153.267578	20969.712891
1154.196289	20346.109375
1155.125000	20056.193359
1156.052734	19995.105469
1156.980469	19915.138672
1157.909180	19592.658203
1158.836914	19302.400391
1159.763672	19346.246094
1160.691406	19185.232422
1161.619141	19215.589844
1162.545898	19334.947266
1163.472656	19481.316406
1164.399414	19374.162109
1165.326172	19517.890625
1166.251953	19486.261719
1167.178711	19384.447266
1168.104492	19050.437500
1169.030273	19377.806641
1169.956055	19065.279297
1170.881836	19255.015625
1171.807617	18861.312500
1172.732422	18802.505859
1173.658203	18565.318359
1174.583008	18636.171875
1175.507812	18509.707031
1176.432617	18448.087891
1177.356445	18451.349609
1178.281250	18086.763672
1179.205078	17616.542969
1180.128906	17446.490234
1181.052734	17852.796875
1181.976562	17644.832031
1182.900391	17336.626953
1183.823242	17450.703125
1184.746094	17453.787109
1185.669922	17305.189453
1186.592773	17432.863281
1187.514648	17541.615234
1188.437500	17292.681641
1189.359375	17154.789062
1190.282227	17358.431641
1191.204102	17163.560547
1192.125977	17193.710938
1193.047852	17031.289062
1193.968750	17202.496094
1194.890625	17419.888672
1195.811523	17281.843750
1196.732422	17160.035156
1197.653320	17127.771484
1198.574219	17171.523438
1199.495117	17253.312500
1200.415039	17476.373047
1201.334961	17419.689453
1202.255859	17300.488281
1203.175781	17431.271484
1204.094727	17537.638672
1205.014648	17383.050781
1205.933594	17369.802734
1206.853516	17519.724609
1207.772461	17680.580078
1208.691406	17621.125000
1209.610352	18029.667969
1210.528320	17806.960938
1211.447266	18150.351562
1212.365234	18191.667969
1213.283203	18393.650391
1214.201172	18159.953125
1215.119141	18664.357422
1216.037109	18629.505859
1216.954102	18646.414062
1217.872070	18755.990234
1218.789062	18740.212891
1219.706055	18923.453125
1220.623047	18795.902344
1221.539062	18987.396484
1222.456055	18985.285156
1223.372070	18644.871094
1224.288086	18847.353516
1225.204102	18815.193359
1226.120117	18777.560547
1227.036133	18789.058594
1227.951172	18562.992188
1228.867188	18304.072266
1229.782227	17889.357422
1230.697266	18283.197266
1231.612305	17977.634766
1232.526367	17882.410156
1233.441406	18049.570312
1234.355469	17648.111328
1235.269531	17645.750000
1236.183594	17637.916016
1237.097656	17703.935547
1238.011719	17392.416016
1238.924805	17428.314453
1239.838867	17362.957031
1240.751953	17111.435547
1241.665039	17393.708984
1242.578125	17372.123047
1243.491211	16947.919922
1244.403320	17142.652344
1245.315430	17041.556641
1246.228516	17055.513672
1247.140625	17406.589844
1248.052734	17316.449219
1248.963867	17185.148438
1249.875977	17133.326172
1250.787109	17270.730469
1251.699219	17194.212891
1252.610352	17342.650391
1253.520508	17526.810547
1254.431641	17389.916016
1255.342773	17571.404297
1256.252930	17417.992188
1257.163086	17324.941406
1258.074219	17654.824219
1258.983398	17468.380859
1259.893555	17949.517578
1260.803711	17622.912109
1261.712891	17862.376953
1262.622070	17818.781250
1263.532227	18008.873047
1264.440430	18243.029297
1265.349609	18097.710938
1266.258789	18254.939453
1267.166992	18362.697266
1268.076172	18299.875000
1268.984375	18625.113281
1269.892578	18724.730469
1270.799805	18711.498047
1271.708008	18645.937500
1272.616211	18723.576172
1273.523438	18994.074219
1274.430664	18551.056641
1275.337891	18992.472656
1276.245117	19056.441406
1277.151367	19148.000000
1278.058594	18994.199219
1278.964844	18975.470703
1279.871094	19061.542969
1280.777344	19169.714844
1281.683594	19233.777344
1282.589844	19148.843750
1283.495117	19119.080078
1284.401367	19210.771484
1285.306641	18990.494141
1286.211914	18756.332031
1287.117188	19267.832031
1288.021484	19144.134766
1288.926758	18572.789062
1289.831055	18545.646484
1290.736328	18355.419922
1291.640625	18314.406250
1292.544922	17974.765625
1293.448242	18094.062500
1294.352539	17685.115234
1295.255859	17679.914062
1296.159180	17732.814453
1297.063477	17459.187500
1297.965820	17531.441406
1298.869141	17520.669922
1299.772461	17454.519531
1300.674805	17200.033203
1301.577148	17194.734375
1302.480469	17491.392578
1303.381836	17441.812500
1304.284180	17497.519531
1305.186523	17148.574219
1306.087891	17090.587891
1306.990234	17149.035156
1307.891602	17074.386719
1308.792969	17157.812500
1309.694336	16766.886719
1310.594727	16905.777344
1311.496094	16453.619141
1312.396484	16448.169922
1313.296875	16567.644531
1314.197266	16198.482422
1315.097656	16279.074219
1315.998047	16659.666016
1316.897461	16356.998047
1317.797852	16440.435547
1318.697266	16512.787109
1319.596680	16582.380859
1320.496094	16704.820312
1321.394531	16549.255859
1322.293945	16741.251953
1323.192383	16655.173828
1324.091797	16869.511719
1324.990234	16649.867188
1325.888672	16825.316406
1326.786133	16844.958984
1327.684570	16605.707031
1328.582031	17020.691406
1329.480469	16959.615234
1330.377930	16901.300781
1331.275391	16979.470703
1332.171875	16753.962891
1333.069336	16890.654297
1333.966797	16927.052734
1334.863281	17055.457031
1335.759766	17050.072266
1336.656250	17217.583984
1337.552734	17323.792969
1338.448242	17591.839844
1339.344727	17633.974609
1340.240234	17843.562500
1341.135742	17743.404297
1342.031250	17863.751953
1342.926758	18218.679688
1343.822266	17752.699219
1344.717773	17993.212891
1345.612305	18063.398438
1346.506836	17971.552734
1347.401367	18011.017578
1348.295898	17754.220703
1349.190430	17639.906250
1350.083984	17282.294922
1350.978516	17548.183594
1351.872070	17064.564453
1352.765625	17143.074219
1353.659180	16874.660156
1354.552734	16737.679688
1355.446289	16603.449219
1356.338867	16830.300781
1357.231445	16253.647461
1358.125000	15940.033203
1359.016602	15917.604492
1359.909180	15914.777344
1360.801758	15892.334961
1361.694336	15614.867188
1362.585938	15382.147461
1363.477539	15452.109375
1364.369141	15746.402344
1365.260742	15216.323242
1366.152344	15305.923828
1367.042969	15207.599609
1367.934570	15241.113281
1368.825195	15176.417969
1369.715820	15364.309570
1370.606445	15153.633789
1371.497070	15150.657227
1372.386719	15175.762695
1373.277344	15209.301758
1374.166992	15341.174805
1375.056641	15003.871094
1375.946289	15248.161133
1376.835938	14952.882812
1377.724609	15301.261719
1378.614258	14800.636719
1379.502930	14817.273438
1380.391602	14791.726562
1381.280273	14937.771484
1382.168945	14822.199219
1383.057617	14990.811523
1383.946289	14945.572266
1384.833984	14677.922852
1385.721680	14790.285156
1386.609375	14902.685547
1387.497070	14508.142578
1388.384766	14383.898438
1389.272461	14747.046875
1390.159180	14600.255859
1391.045898	14580.247070
1391.932617	14484.117188
1392.819336	14469.719727
1393.706055	14218.435547
1394.592773	14567.828125
1395.478516	14736.798828
1396.365234	14175.067383
1397.250977	14428.685547
1398.136719	14213.865234
1399.022461	14309.493164
1399.907227	14314.803711
1400.792969	14537.557617
1401.677734	14531.611328
1402.562500	14737.529297
1403.448242	14432.122070
1404.332031	14437.456055
1405.216797	14688.685547
1406.101562	14544.240234
1406.985352	14428.017578
1407.869141	14761.382812
1408.753906	14633.842773
1409.637695	14803.285156
1410.520508	14811.514648
1411.404297	14610.340820
1412.288086	14601.556641
1413.170898	14570.122070
1414.053711	14634.940430
1414.936523	14558.191406
1415.819336	14005.592773
1416.702148	14316.795898
1417.583984	14013.289062
1418.466797	13896.704102
1419.348633	13873.607422
1420.230469	13626.558594
1421.112305	13677.122070
1421.994141	13291.001953
1422.875000	13236.583984
1423.756836	13448.796875
1424.637695	13303.595703
1425.518555	13013.622070
1426.399414	13251.448242
1427.280273	13137.361328
1428.161133	12850.044922
1429.041016	13173.154297
1429.921875	12956.748047
1430.801758	12805.599609
1431.681641	12927.147461
1432.561523	12824.249023
1433.440430	12715.629883
1434.320312	12862.807617
1435.199219	12961.702148
1436.079102	12926.982422
1436.958008	12764.265625
1437.836914	12720.964844
1438.715820	12794.295898
1439.593750	12642.852539
1440.472656	12571.045898
1441.350586	12775.329102
1442.228516	12521.308594
1443.106445	12534.867188
1443.984375	12628.175781
1444.862305	12399.632812
1445.739258	12407.478516
1446.617188	12446.670898
1447.494141	12303.476562
1448.371094	12422.477539
1449.248047	12487.350586
1450.125000	12366.898438
1451.000977	12434.634766
1451.877930	12220.000000
1452.753906	12481.735352
1453.629883	12244.205078
1454.505859	12317.673828
1455.381836	12465.381836
1456.257812	12413.295898
1457.132812	12261.250000
1458.008789	12257.660156
1458.883789	12322.622070
1459.758789	12281.900391
1460.633789	11972.567383
1461.508789	11948.916992
1462.382812	12253.974609
1463.257812	12270.388672
1464.131836	12189.588867
1465.005859	12240.315430
1465.879883	12276.756836
1466.753906	12021.400391
1467.627930	12186.577148
1468.500977	12085.657227
1469.375000	12248.039062
1470.248047	12089.836914
1471.121094	12217.914062
1471.994141	12051.059570
1472.867188	12098.971680
1473.739258	12152.629883
1474.612305	12148.999023
1475.484375	11970.551758
1476.356445	12124.535156
1477.228516	11860.016602
1478.100586	11996.829102
1478.971680	12033.315430
1479.843750	11998.106445
1480.714844	11785.018555
1481.586914	11830.093750
1482.458008	11823.528320
1483.328125	11928.900391
1484.199219	12008.471680
1485.070312	11835.397461
1485.940430	12001.131836
1486.811523	11962.992188
1487.681641	11651.926758
1488.551758	11857.939453
1489.420898	11604.221680
1490.291016	11985.625977
1491.161133	11800.835938
1492.030273	11791.372070
1492.899414	11942.945312
1493.768555	11809.823242
1494.637695	11774.463867
1495.506836	11624.001953
1496.375977	11746.872070
1497.244141	11613.622070
1498.112305	11624.261719
1498.980469	11876.758789
1499.848633	11674.347656
1500.716797	11555.392578
1501.584961	11612.119141
1502.452148	11472.942383
1503.320312	11558.490234
1504.187500	11419.255859
1505.054688	11432.755859
1505.921875	11385.712891
1506.789062	11263.676758
1507.655273	11360.796875
1508.522461	11368.524414
1509.388672	11246.420898
1510.254883	11438.813477
1511.121094	11313.793945
1511.987305	11116.563477
1512.853516	11251.288086
1513.718750	11313.868164
1514.584961	11234.948242
1515.450195	11280.213867
1516.315430	11290.825195
1517.180664	11347.672852
1518.045898	11222.460938
1518.910156	11062.517578
1519.775391	11023.946289
1520.639648	11127.052734
1521.503906	11117.400391
1522.368164	11052.784180
1523.232422	11106.763672
1524.096680	11036.334961
1524.959961	11122.164062
1525.824219	11115.395508
1526.687500	11143.364258
1527.550781	11151.074219
1528.414062	11051.628906
1529.277344	10827.593750
1530.139648	10884.501953
1531.002930	10828.422852
1531.865234	11012.867188
1532.727539	10858.237305
1533.589844	10857.206055
1534.452148	11166.433594
1535.314453	11023.347656
1536.175781	10967.231445
1537.038086	10887.886719
1537.899414	10860.743164
1538.760742	11054.150391
1539.622070	10847.063477
1540.483398	10761.834961
1541.344727	10792.721680
1542.205078	10928.166016
1543.066406	11052.038086
1543.926758	10914.493164
1544.787109	10957.047852
1545.647461	11034.490234
1546.506836	10914.308594
1547.367188	10919.091797
1548.227539	11037.272461
1549.086914	11065.341797
1549.946289	11026.522461
1550.805664	11211.690430
1551.665039	11350.368164
1552.523438	11171.891602
1553.382812	11170.900391
1554.241211	10960.308594
1555.100586	11195.119141
1555.958984	11307.702148
1556.817383	11533.914062
1557.674805	11346.542969
1558.533203	11319.355469
1559.391602	11504.887695
1560.249023	11177.512695
1561.106445	11605.037109
1561.963867	11583.704102
1562.821289	11428.222656
1563.678711	11561.431641
1564.535156	11712.188477
1565.392578	11626.669922
1566.249023	11876.705078
1567.105469	11928.359375
1567.961914	12196.044922
1568.818359	11955.809570
1569.674805	11952.020508
1570.530273	12027.085938
1571.386719	12075.886719
1572.242188	12095.488281
1573.097656	12214.447266
1573.953125	12049.953125
1574.808594	12154.329102
1575.663086	12153.489258
1576.518555	12120.484375
1577.373047	11888.592773
1578.227539	12077.838867
1579.082031	12044.801758
1579.936523	11803.998047
1580.791016	11969.912109
1581.644531	11928.057617
1582.499023	11985.726562
1583.352539	11785.739258
1584.206055	11676.470703
1585.059570	11927.448242
1585.913086	11850.392578
1586.766602	11805.540039
1587.619141	11962.886719
1588.472656	11947.349609
1589.325195	11808.676758
1590.177734	11995.424805
1591.030273	12085.458984
1591.882812	12034.732422
1592.734375	12107.201172
1593.586914	12144.484375
1594.438477	12407.749023
1595.290039	12301.272461
1596.141602	12773.084961
1596.993164	12649.016602
1597.844727	12856.749023
1598.696289	12806.081055
1599.546875	12743.643555
1600.397461	12687.061523
1601.248047	12724.497070
1602.098633	12744.309570
1602.949219	12431.943359
1603.799805	12566.379883
1604.649414	12271.519531
1605.500000	12158.912109
1606.349609	11705.028320
1607.199219	11759.990234
1608.048828	11564.840820
1608.898438	11213.633789
1609.748047	11318.582031
1610.596680	11193.916016
1611.445312	11019.146484
1612.294922	11118.223633
1613.143555	10990.512695
1613.992188	10930.520508
1614.839844	10823.360352
1615.688477	10683.743164
1616.536133	10703.255859
1617.384766	10454.484375
1618.232422	10633.196289
1619.080078	10505.247070
1619.927734	10383.152344
1620.774414	10154.805664
1621.622070	10472.273438
1622.468750	10264.522461
1623.316406	9977.001953
1624.163086	10126.320312
1625.009766	9986.316406
1625.856445	10103.201172
1626.702148	10075.388672
1627.548828	10174.601562
1628.394531	10114.288086
1629.241211	9814.574219
1630.086914	9916.748047
1630.932617	9900.703125
1631.777344	9588.970703
1632.623047	9883.382812
1633.468750	9917.606445
1634.313477	9789.132812
1635.158203	9776.009766
1636.002930	9807.271484
1636.847656	9767.507812
1637.692383	9709.966797
1638.536133	9596.150391
1639.380859	9627.401367
1640.224609	9723.824219
1641.068359	9556.627930
1641.912109	9540.481445
1642.755859	9592.486328
1643.599609	9380.722656
1644.443359	9631.332031
1645.286133	9541.062500
1646.128906	9430.004883
1646.971680	9396.021484
1647.814453	9548.911133
1648.657227	9497.134766
1649.500000	9679.767578
1650.342773	9666.578125
1651.184570	9421.845703
1652.026367	9393.761719
1652.868164	9214.226562
1653.709961	9183.127930
1654.551758	9080.726562
1655.393555	9218.938477
1656.234375	9152.166016
1657.076172	9213.165039
1657.916992	9170.147461
1658.757812	9213.332031
1659.598633	9295.186523
1660.439453	9180.783203
1661.279297	9250.761719
1662.120117	8945.909180
1662.959961	9134.891602
1663.799805	9228.705078
1664.639648	9185.628906
1665.479492	9038.339844
1666.319336	9093.475586
1667.159180	8955.054688
1667.998047	9019.128906
1668.837891	9026.623047
1669.676758	9197.996094
1670.515625	9068.437500
1671.354492	8777.881836
1672.192383	9086.430664
1673.031250	9067.106445
1673.869141	8770.436523
1674.708008	8801.754883
1675.545898	8853.966797
1676.383789	8947.965820
1677.221680	8785.359375
1678.058594	8903.256836
1678.896484	8785.364258
1679.733398	8771.930664
1680.571289	8764.463867
1681.408203	8673.367188
1682.245117	8618.084961
1683.082031	8625.526367
1683.917969	8803.297852
1684.754883	8625.471680
1685.590820	8770.420898
1686.427734	8592.527344
1687.263672	8683.696289
1688.099609	8655.264648
1688.935547	8692.630859
1689.770508	8487.675781
1690.606445	8456.203125
1691.441406	8706.042969
1692.276367	8500.984375
1693.111328	8538.354492
1693.946289	8509.862305
1694.781250	8433.442383
1695.616211	8617.590820
1696.450195	8499.221680
1697.285156	8548.606445
1698.119141	8379.237305
1698.953125	8341.695312
1699.787109	8367.094727
1700.621094	8425.485352
1701.454102	8309.958984
1702.288086	8212.389648
1703.121094	8531.775391
1703.954102	8332.195312
1704.788086	8471.653320
1705.620117	8338.026367
1706.453125	8234.373047
1707.286133	8211.750977
1708.118164	8228.160156
1708.951172	8304.643555
1709.783203	8318.069336
1710.615234	8343.516602
1711.447266	8254.782227
1712.279297	8424.492188
1713.110352	8155.378418
1713.942383	8162.774902
1714.773438	8230.315430
1715.604492	8276.825195
1716.435547	8103.760254
1717.266602	8288.658203
1718.097656	8058.363770
1718.928711	8044.682617
1719.758789	8037.016113
1720.588867	8125.687500
1721.419922	8283.644531
1722.250000	8321.188477
1723.079102	8006.322754
1723.909180	8043.832031
1724.739258	8036.156250
1725.568359	8073.682617
1726.398438	8008.738281
1727.227539	7934.728027
1728.056641	8083.818848
1728.885742	8196.770508
1729.713867	7824.145020
1730.542969	7891.839844
1731.371094	7938.436035
1732.200195	7948.833984
1733.028320	8070.912109
1733.856445	8162.843750
1734.684570	8200.458008
1735.511719	7948.181641
1736.339844	8151.890625
1737.167969	7742.435547
1737.995117	7888.771973
1738.822266	7938.457520
1739.649414	8000.249512
1740.476562	7907.894531
1741.303711	7773.179688
1742.129883	8004.313477
1742.957031	7963.326660
1743.783203	7883.000977
1744.609375	7826.851562
1745.435547	7861.461914
1746.261719	8095.831055
1747.087891	7915.581543
1747.913086	7919.948730
1748.739258	7742.635742
1749.564453	7768.173828
1750.389648	7981.520996
1751.214844	8028.314453
1752.040039	7917.560059
1752.865234	7831.012695
1753.689453	7762.622070
1754.514648	7909.451660
1755.338867	7798.601074
1756.163086	7787.789551
1756.987305	7786.073242
1757.811523	7926.937988
1758.635742	7831.184570
1759.458984	7586.699707
1760.283203	7924.888672
1761.106445	7908.013672
1761.929688	7751.467285
1762.752930	7919.797363
1763.576172	7553.629395
1764.399414	7928.550293
1765.221680	7823.550293
1766.044922	7639.506348
1766.867188	7953.845215
1767.689453	7888.312988
1768.511719	7983.895996
1769.333984	7781.508301
1770.156250	7837.566895
1770.978516	7778.053711
1771.799805	7800.664062
1772.621094	7692.437012
1773.442383	7654.171875
1774.264648	7710.255371
1775.084961	7815.067871
1775.906250	7606.285645
1776.727539	7714.161133
1777.547852	7721.555664
1778.368164	7698.487305
1779.189453	7657.128418
1780.009766	7701.086426
1780.830078	7598.752930
1781.649414	7831.725098
1782.469727	7732.427734
1783.289062	7541.608887
1784.109375	7652.685059
1784.928711	7708.887207
1785.748047	7667.472168
1786.567383	7684.023926
1787.386719	7627.329102
1788.205078	7668.300293
1789.024414	7620.742676
1789.842773	7612.867188
1790.661133	7464.494629
1791.479492	7722.350586
1792.297852	7552.559082
1793.116211	7666.895508
1793.933594	7417.574219
1794.751953	7660.311035
1795.569336	7444.533691
1796.386719	7350.996582
1797.205078	7633.602051
1798.021484	7607.359375
1798.838867	7553.572754
1799.656250	7515.067383
1800.472656	7467.367676
1801.290039	7539.026855
1802.106445	7583.157227
1802.922852	7474.205078
1803.739258	7530.588379
1804.555664	7470.597656
1805.371094	7441.221191
1806.187500	7375.066406
1807.002930	7535.664062
1807.818359	7487.892578
1808.634766	7483.022461
1809.449219	7557.868652
1810.264648	7439.543945
1811.080078	7354.917969
1811.894531	7368.426758
1812.709961	7572.164551
1813.524414	7490.585449
1814.338867	7378.287109
1815.153320	7434.783691
1815.967773	7383.841309
1816.782227	7385.084473
1817.595703	7318.759766
1818.410156	7329.207031
1819.223633	7345.801758
1820.037109	7257.926758
1820.850586	7406.666504
1821.664062	7254.221680
1822.477539	7390.712891
1823.290039	7182.865723
1824.102539	7214.828125
1824.916016	7326.773438
1825.728516	7543.354492
1826.541016	7289.238281
1827.353516	7293.541504
1828.165039	7390.185059
1828.977539	7323.701172
1829.789062	7275.668457
1830.601562	7283.050781
1831.413086	7311.995605
1832.224609	7316.305176
1833.036133	7225.103027
1833.847656	7229.398926
1834.658203	7168.972168
1835.469727	7299.646973
1836.280273	7251.543457
1837.090820	7203.423340
1837.901367	7152.203125
1838.711914	7381.671875
1839.522461	7284.185547
1840.333008	7050.893555
1841.142578	7323.667969
1841.952148	7065.609863
1842.762695	7279.819336
1843.572266	7111.212891
1844.381836	7143.290039
1845.190430	7051.824707
1846.000000	7071.544922
1846.808594	7044.923340
1847.618164	7151.179688
1848.426758	7059.652832
1849.235352	7063.929688
1850.043945	7034.195801
1850.852539	7125.058594
1851.661133	6983.976562
1852.468750	7025.364746
1853.277344	7122.458496
1854.084961	6947.264648
1854.892578	6886.529297
1855.700195	6986.743652
1856.507812	7062.222168
1857.315430	6958.122070
1858.122070	7070.786621
1858.928711	6938.772949
1859.736328	6899.660645
1860.542969	7046.457031
1861.349609	6976.356934
1862.156250	6850.437012
1862.962891	6944.594238
1863.768555	6877.541504
1864.575195	6981.037598
1865.380859	6929.477051
1866.186523	6859.285156
1866.992188	6919.389648
1867.797852	6963.996582
1868.603516	6822.384277
1869.408203	6851.467773
1870.213867	6877.456055
1871.018555	6897.241211
1871.824219	6767.945801
1872.628906	6828.103516
1873.433594	7015.669434
1874.237305	6914.295898
1875.041992	6949.643066
1875.846680	6894.852539
1876.650391	6979.953613
1877.454102	6723.023438
1878.257812	6786.353027
1879.061523	7030.122070
1879.865234	6794.848633
1880.668945	6802.209961
1881.471680	6650.849609
1882.275391	6957.013672
1883.078125	6724.682617
1883.880859	6837.905273
1884.683594	6920.022461
1885.486328	6796.586914
1886.289062	6738.532715
1887.090820	6886.107422
1887.893555	6837.397461
1888.695312	6841.658691
1889.497070	6602.760254
1890.298828	6697.404297
1891.100586	6742.184082
1891.902344	6668.455566
1892.704102	6703.886230
1893.504883	6627.006348
1894.306641	6749.817871
1895.107422	6707.251465
1895.908203	6752.076172
1896.708984	6606.464844
1897.509766	6723.108398
1898.309570	6677.384766
1899.110352	6625.398438
1899.910156	6432.803711
1900.710938	6668.236328
1901.510742	6713.104980
1902.310547	6764.240234
1903.109375	6659.076172
1903.909180	6550.749512
1904.708984	6701.958496
1905.507812	6684.311035
1906.307617	6572.805176
1907.106445	6677.158691
1907.905273	6790.935547
1908.704102	6760.770508
1909.501953	6661.723633
1910.300781	6603.347168
1911.098633	6732.844238
1911.897461	6508.459473
1912.695312	6797.746094
1913.493164	6494.968262
1914.291016	6549.325195
1915.088867	6531.614258
1915.886719	6579.725586
1916.683594	6442.874512
1917.480469	6462.765137
1918.278320	6397.982422
1919.075195	6480.607422
1919.872070	6456.590820
1920.668945	6645.938965
1921.464844	6468.162109
1922.261719	6550.852539
1923.057617	6416.951660
1923.854492	6753.995605
1924.650391	6381.408203
1925.446289	6413.883301
1926.242188	6399.246094
1927.038086	6576.267578
1927.833008	6536.511719
1928.628906	6515.600586
1929.423828	6431.810547
1930.218750	6310.262207
1931.013672	6481.125977
1931.808594	6457.045898
1932.603516	6310.274902
1933.398438	6443.468750
1934.192383	6435.103027
1934.987305	6294.548828
1935.781250	6651.299805
1936.575195	6476.103027
1937.369141	6401.610352
1938.163086	6434.171387
1938.957031	6312.397949
1939.750000	6322.901367
1940.543945	6238.879883
1941.336914	6145.375488
1942.129883	6253.567871
1942.922852	6305.050293
1943.715820	6325.019531
1944.508789	6281.923340
1945.301758	6308.202637
1946.093750	6268.243652
1946.885742	6303.994629
1947.678711	6229.308594
1948.470703	6198.784668
1949.262695	6313.459473
1950.054688	6305.039062
1950.845703	6138.727051
1951.637695	6190.282227
1952.428711	6286.078125
1953.220703	6347.152832
1954.011719	6177.575684
1954.802734	6071.150391
1955.593750	6255.495605
1956.383789	6152.208496
1957.174805	6162.718750
1957.964844	6173.232422
1958.755859	6253.335938
1959.545898	6130.997559
1960.335938	6163.658691
1961.125977	6259.623535
1961.916016	6248.004395
1962.706055	6334.517578
1963.495117	6091.773926
1964.284180	5994.618652
1965.074219	6172.982422
1965.863281	6028.291504
1966.652344	5905.729980
1967.441406	6207.751953
1968.230469	6196.106934
1969.018555	6165.438477
1969.807617	6236.213379
1970.595703	6145.292969
1971.383789	6073.371094
1972.171875	6020.456543
1972.959961	6338.710449
1973.748047	6165.246582
1974.536133	6115.494141
1975.323242	6122.858887
1976.110352	6149.273926
1976.898438	6032.814941
1977.685547	6303.751465
1978.472656	6107.873535
1979.259766	5984.995117
1980.045898	6043.180664
1980.833008	5974.273438
1981.619141	6054.724121
1982.406250	6008.047363
1983.192383	6177.553223
1983.978516	5936.905762
1984.764648	5998.320312
1985.550781	6113.831543
1986.335938	6159.388184
1987.122070	6052.222168
1987.907227	5910.012207
1988.693359	5901.444336
1989.478516	6020.217773
1990.263672	5992.560059
1991.047852	6009.478516
1991.833008	5975.438965
1992.618164	5992.359863
1993.402344	5849.972656
1994.187500	5803.142090
1994.971680	5934.785156
1995.755859	5907.079590
1996.540039	5990.958008
1997.323242	6004.707520
1998.107422	5792.012207
1998.891602	5805.732910
1999.674805	5956.649414
2000.458008	5881.053223
2001.241211	6012.882324
2002.024414	5981.958984
2002.807617	5944.640137
2003.590820	5776.389648
2004.374023	5751.798340
2005.156250	5989.123047
2005.938477	5913.442871
2006.720703	5888.861328
2007.503906	5950.557617
2008.285156	5935.562988
2009.067383	5776.704590
2009.849609	5854.399414
2010.630859	5759.432617
2011.413086	5907.515625
2012.194336	5873.306152
2012.975586	5944.668457
2013.756836	5856.053223
2014.538086	5671.391113
2015.319336	5739.553711
2016.099609	5852.561523
2016.880859	5815.105469
2017.661133	5687.961914
2018.441406	5695.310547
2019.221680	5689.846680
2020.001953	5851.002930
2020.782227	5803.899902
2021.562500	5862.557129
2022.341797	5770.558105
2023.122070	5656.083496
2023.901367	5730.779785
2024.680664	5786.255371
2025.459961	5591.526367
2026.239258	5650.205566
2027.018555	5776.293945
2027.796875	5697.010742
2028.576172	5746.105469
2029.354492	5724.582031
2030.132812	5683.784180
2030.912109	5765.018066
2031.689453	5682.453613
2032.467773	5805.479492
2033.246094	5610.428711
2034.024414	5768.834961
2034.801758	5801.933105
2035.579102	5709.661133
2036.356445	5790.991699
2037.133789	5618.287598
2037.911133	5776.825195
2038.688477	5575.107910
2039.465820	5643.599121
2040.242188	5731.420898
2041.019531	5603.624023
2041.795898	5636.742188
2042.572266	5595.818359
2043.348633	5757.754395
2044.125000	5642.759277
2044.901367	5514.840820
2045.676758	5435.207031
2046.453125	5674.559570
2047.228516	5772.184082
2048.003906	5570.062988
2048.779297	5619.342773
2049.554688	5626.720703
2050.330078	5608.300293
2051.105469	5476.979980
2051.879883	5674.675781
2052.654297	5540.095703
2053.429688	5421.606445
2054.204102	5609.707520
2054.978516	5404.028809
2055.752930	5543.757812
2056.526367	5447.794922
2057.300781	5371.179199
2058.075195	5540.044434
2058.848633	5531.266602
2059.622070	5474.014648
2060.395508	5371.496582
2061.168945	5530.774902
2061.942383	5454.095703
2062.715820	5458.229980
2063.488281	5504.408203
2064.261719	5553.835938
2065.034180	5522.401367
2065.806641	5510.370117
2066.579102	5517.751953
2067.351562	5382.719238
2068.124023	5351.234375
2068.896484	5455.728027
2069.667969	5349.762207
2070.440430	5389.511719
2071.211914	5393.640625
2071.983398	5384.810547
2072.754883	5453.749023
2073.526367	5367.141113
2074.297852	5299.953613
2075.068359	5424.027344
2075.839844	5269.275879
2076.610352	5257.172363
2077.380859	5384.543457
2078.151367	5424.362305
2078.921875	5230.570312
2079.692383	5406.679199
2080.462891	5216.065918
2081.232422	5444.172363
2082.002930	5350.909668
2082.772461	5296.584961
2083.541992	5144.802734
2084.311523	5200.875488
2085.081055	5295.955078
2085.850586	5371.568848
2086.620117	5235.948730
2087.388672	5184.800781
2088.158203	5403.485352
2088.926758	5241.789062
2089.695312	5154.841309
2090.463867	5126.415527
2091.232422	5231.366699
2092.000977	5342.860352
2092.768555	5242.853516
2093.537109	5159.088379
2094.304688	5208.770508
2095.072266	5160.788086
2095.840820	5177.920410
2096.608398	5045.232422
2097.375000	5065.608887
2098.142578	5200.027344
2098.910156	5116.157715
2099.676758	4996.408203
2100.444336	5124.361816
2101.210938	5239.315918
2101.977539	5155.396484
2102.744141	5162.767578
2103.510742	5144.045898
2104.276367	5102.480469
2105.042969	5051.112305
2105.808594	5277.126953
2106.575195	5196.393555
2107.340820	5118.897949
2108.106445	5096.883789
2108.872070	5189.161621
2109.636719	5163.885254
2110.402344	5086.332520
2111.167969	5168.851562
2111.932617	5012.845703
2112.697266	5124.794434
2113.461914	5102.754883
2114.226562	5106.863770
2114.991211	5035.763672
2115.755859	5059.485352
2116.520508	5125.738281
2117.284180	5034.976562
2118.048828	4957.272949
2118.812500	4958.087891
2119.576172	5014.547363
2120.339844	4999.002441
2121.103516	4990.001465
2121.866211	4971.172363
2122.629883	4913.033203
2123.392578	5094.014648
2124.156250	4993.282227
2124.918945	4935.117188
2125.681641	5224.348633
2126.444336	4966.241211
2127.207031	5029.350098
2127.969727	4826.870605
2128.731445	4886.697266
2129.494141	5202.398926
2130.255859	5088.427734
2131.017578	5046.606445
2131.779297	5027.744141
2132.541016	4930.099121
2133.302734	4993.283691
2134.064453	5003.953613
2134.825195	5047.466797
2135.586914	4923.483887
2136.347656	4963.712891
2137.108398	4948.099609
2137.869141	5001.489746
2138.629883	4897.137207
2139.390625	4934.100098
2140.150391	4905.320312
2140.911133	4929.143066
2141.670898	4887.197266
2142.430664	4746.556152
2143.191406	5013.817383
2143.951172	4840.246094
2144.710938	4758.765625
2145.469727	4825.376953
2146.229492	4803.123535
2146.988281	4777.570801
2147.748047	4752.008789
2148.506836	4881.242188
2149.265625	4766.744629
2150.024414	4780.705078
2150.783203	4830.918945
2151.541992	4627.368164
2152.299805	4713.833008
2153.058594	4942.093750
2153.816406	4705.486328
2154.574219	4818.389648
2155.332031	4657.550781
2156.089844	4671.510254
2156.847656	4606.283203
2157.605469	4709.343262
2158.363281	4746.422852
2159.120117	4664.669434
2159.876953	4744.676758
2160.634766	4702.523926
2161.391602	4739.625977
2162.148438	4773.436523
2162.904297	4612.324219
2163.661133	4659.342773
2164.417969	4554.344727
2165.173828	4581.535156
2165.930664	4532.693848
2166.686523	4622.715820
2167.442383	4633.394531
2168.198242	4773.078613
2168.954102	4734.160645
2169.708984	4559.567871
2170.464844	4715.854492
2171.219727	4541.201172
2171.975586	4644.568848
2172.730469	4708.237793
2173.485352	4722.254395
2174.240234	4660.097656
2174.995117	4568.106934
2175.749023	4578.793945
2176.503906	4509.955566
2177.257812	4514.007812
2178.011719	4640.708496
2178.766602	4598.368164
2179.520508	4675.385742
2180.274414	4483.798340
2181.027344	4789.691895
2181.781250	4667.727539
2182.535156	4512.542969
2183.288086	4513.280762
2184.041016	4427.721680
2184.793945	4547.954102
2185.546875	4419.208984
2186.299805	4678.951172
2187.052734	4440.582031
2187.805664	4574.182129
2188.557617	4422.100098
2189.310547	4456.052246
2190.062500	4480.044922
2190.814453	4357.788574
2191.566406	4365.149902
2192.318359	4392.463867
2193.070312	4556.138672
2193.822266	4467.075684
2194.573242	4484.439453
2195.324219	4431.935547
2196.076172	4429.332031
2196.827148	4373.473145
2197.578125	4370.858887
2198.329102	4371.572754
2199.080078	4335.656738
2199.830078	4432.950684
2200.581055	4217.154297
2201.331055	4367.766113
2202.081055	4271.846680
2202.832031	4205.889648
2203.582031	4299.907715
2204.331055	4347.283203
2205.081055	4237.959473
2205.831055	4408.730957
2206.580078	4309.387207
2207.330078	4266.723145
2208.079102	4364.178711
2208.828125	4291.475586
2209.577148	4185.372070
2210.326172	4312.905273
2211.075195	4256.851074
2211.823242	4080.565430
2212.572266	4341.735352
2213.320312	4215.510742
2214.069336	4319.766113
2214.817383	4260.324707
2215.565430	4297.781738
2216.313477	4138.041504
2217.060547	4205.578125
2217.808594	4299.885254
2218.556641	4193.573242
2219.303711	4231.048828
2220.050781	4332.096191
2220.797852	4061.793457
2221.544922	4099.265625
2222.291992	4237.156250
2223.039062	4321.532715
2223.786133	4338.977051
2224.532227	4266.016602
2225.279297	4119.353027
2226.025391	3975.991211
2226.771484	4137.446777
2227.517578	4171.628418
2228.263672	4125.390625
2229.009766	4092.544922
2229.754883	4113.325684
2230.500977	4170.995117
2231.246094	4128.080078
2231.992188	4236.080078
2232.737305	4287.087891
2233.482422	4193.844238
2234.227539	4134.126465
2234.971680	4087.813232
2235.716797	4172.396973
2236.461914	4159.647461
2237.206055	4089.810791
2237.950195	4103.910156
2238.694336	4067.630615
2239.438477	4232.905762
2240.182617	4159.675293
2240.926758	4207.399902
2241.670898	4093.807861
2242.414062	4346.597168
2243.158203	4280.061035
2243.901367	4005.013428
2244.644531	4079.657471
2245.387695	4187.963867
2246.130859	4027.155518
2246.874023	4031.175537
2247.617188	4139.526367
2248.359375	4015.657471
2249.101562	3996.111572
2249.844727	4262.763184
2250.586914	4081.603271
2251.329102	3910.488770
2252.071289	3995.343506
2252.813477	4012.840088
2253.554688	4047.191162
2254.296875	4095.034912
2255.038086	4095.700928
2255.780273	3958.135498
2256.521484	4022.847900
2257.262695	4195.504395
2258.003906	4179.320801
2258.745117	3933.720947
2259.485352	3907.366455
2260.226562	4022.744385
2260.966797	3874.883545
2261.708008	4148.959961
2262.448242	4011.200439
2263.188477	3856.511230
2263.928711	3995.616699
2264.668945	3854.386719
2265.408203	3871.906006
2266.148438	3940.118652
2266.888672	4042.150635
2267.627930	4039.427002
2268.367188	3965.705078
2269.106445	4152.324707
2269.845703	4010.958496
2270.584961	3886.458496
2271.324219	3985.197510
2272.062500	4009.529541
2272.801758	3912.041260
2273.540039	4027.755127
2274.278320	4001.327393
2275.016602	3920.718750
2275.754883	3978.922607
2276.493164	4074.400879
2277.231445	3997.151855
2277.969727	3845.342041
2278.707031	3747.699219
2279.444336	3955.040771
2280.182617	3952.292969
2280.919922	3952.934326
2281.657227	3845.072998
2282.394531	3727.002441
2283.131836	3948.075439
2283.868164	3952.108398
2284.605469	3847.569092
2285.341797	3970.358154
2286.078125	4069.428711
2286.814453	3968.251709
2287.550781	3738.027344
2288.287109	3989.913330
2289.023438	3936.220703
2289.759766	3919.875244
2290.495117	3815.194092
2291.231445	3955.125488
2291.966797	3772.251953
2292.702148	3721.878906
2293.437500	3919.654785
2294.172852	3899.889893
2294.908203	3818.906982
2295.643555	3765.107178
2296.377930	3898.385010
2297.113281	3817.362061
2297.847656	3783.952393
2298.582031	3784.565674
2299.316406	3764.755127
2300.050781	3877.713379
2300.785156	3868.126709
